 N2 Density=0.1251E-02
 Energy(eV), Delta, Beta
  30.  0.000132824571  0.000180115225
  30.3091583  0.000132240471  0.000174667002
  30.6215  0.000131508554  0.000169383653
  30.9370594  0.000130673317  0.000164259909
  31.2558746  0.000129762848  0.000159291027
  31.5779762  0.000128721367  0.000154472815
  31.9033928  0.000127593376  0.000149800224
  32.2321663  0.000126377432  0.00014526867
  32.5643234  0.000125047722  0.000140954449
  32.8999062  0.000123703387  0.000136812771
  33.2389488  0.000122350713  0.00013286015
  33.5814857  0.000120995188  0.000129021631
  33.9275475  0.00011963422  0.000125293998
  34.2771797  0.000118249664  0.000121673962
  34.6304169  0.000116842151  0.000118158539
  34.9872894  0.000115422772  0.000114744777
  35.3478432  0.00011396427  0.000111429748
  35.7121124  0.000112480469  0.000108210348
  36.0801315  0.0001109769  0.000105083891
  36.4519463  0.000109370354  0.000102047852
  36.8275909  0.000107575186  9.90996195E-05
  37.2071075  0.000105514206  9.62965278E-05
  37.590538  0.000104536462  9.50993635E-05
  37.9779167  0.000103774488  9.23473708E-05
  38.3692856  0.000102623373  8.96751953E-05
  38.7646904  0.000101392012  8.7080196E-05
  39.1641693  0.000100124736  8.45602117E-05
  39.5677643  9.88161992E-05  8.21130525E-05
  39.9755211  9.74969807E-05  7.97368557E-05
  40.3874817  9.61737678E-05  7.74295113E-05
  40.8036804  9.48345769E-05  7.51888365E-05
  41.2241707  9.34994896E-05  7.30130123E-05
  41.6489983  9.21661631E-05  7.09001397E-05
  42.0781975  9.08308357E-05  6.88483633E-05
  42.5118256  8.95038902E-05  6.68559733E-05
  42.9499207  8.81816668E-05  6.49213325E-05
  43.3925285  8.68657007E-05  6.30426075E-05
  43.8396988  8.5561187E-05  6.12182412E-05
  44.2914772  8.42646041E-05  5.9446771E-05
  44.7479134  8.29798955E-05  5.772652E-05
  45.2090492  8.17101318E-05  5.60560329E-05
  45.674942  8.04745287E-05  5.44338654E-05
  46.1456299  7.92532082E-05  5.28334749E-05
  46.62117  7.80459814E-05  5.12540428E-05
  47.1016159  7.68093305E-05  4.96971697E-05
  47.5870056  7.55746514E-05  4.81854549E-05
  48.0774002  7.43367345E-05  4.6719626E-05
  48.5728493  7.30967804E-05  4.52984968E-05
  49.0734062  7.18652373E-05  4.39206051E-05
  49.5791168  7.06340725E-05  4.25845865E-05
  50.0900421  6.94053451E-05  4.1289215E-05
  50.6062317  6.81851525E-05  4.00332465E-05
  51.1277428  6.69561196E-05  3.88154913E-05
  51.6546249  6.57189375E-05  3.76347452E-05
  52.1869354  6.44782485E-05  3.64898769E-05
  52.7247353  6.31014118E-05  3.53798641E-05
  53.2680779  6.18272752E-05  3.45182525E-05
  53.8170166  6.06957401E-05  3.39954859E-05
  54.3716125  5.98293955E-05  3.31509764E-05
  54.9319267  5.89714182E-05  3.2251326E-05
  55.4980125  5.79918487E-05  3.13431046E-05
  56.0699348  5.70262127E-05  3.04604127E-05
  56.647747  5.60742119E-05  2.96025519E-05
  57.231514  5.51309313E-05  2.87687672E-05
  57.8213005  5.42017915E-05  2.79584365E-05
  58.41716  5.32869199E-05  2.71708523E-05
  59.0191612  5.23895615E-05  2.63987513E-05
  59.6273689  5.15048923E-05  2.56437907E-05
  60.2418442  5.06323631E-05  2.49045916E-05
  60.862648  4.97698857E-05  2.41820308E-05
  61.4898567  4.89186714E-05  2.34760482E-05
  62.1235237  4.80765557E-05  2.2782724E-05
  62.7637177  4.72390493E-05  2.2109798E-05
  63.410511  4.64116602E-05  2.14566862E-05
  64.0639725  4.55941117E-05  2.0822712E-05
  64.7241745  4.47877137E-05  2.02075407E-05
  65.3911667  4.3993361E-05  1.96106012E-05
  66.0650406  4.32097549E-05  1.90314804E-05
  66.7458572  4.24387836E-05  1.846944E-05
  67.4336853  4.16802177E-05  1.79240142E-05
  68.1286011  4.09345776E-05  1.73946355E-05
  68.8306808  4.02020014E-05  1.68790775E-05
  69.5400009  3.94823037E-05  1.6375654E-05
  70.2566223  3.87730543E-05  1.5884918E-05
  70.9806442  3.80748425E-05  1.54068366E-05
  71.7121124  3.73859984E-05  1.4938455E-05
  72.4511185  3.67052271E-05  1.44835512E-05
  73.1977463  3.60341801E-05  1.40421271E-05
  73.9520645  3.5371475E-05  1.36141834E-05
  74.7141647  3.47192545E-05  1.31992292E-05
  75.484108  3.40776023E-05  1.27968842E-05
  76.2619934  3.34455654E-05  1.24068492E-05
  77.0478821  3.2824606E-05  1.20287095E-05
  77.8418808  3.22143715E-05  1.16620922E-05
  78.6440659  3.16141923E-05  1.13044889E-05
  79.4545059  3.10243413E-05  1.09574285E-05
  80.2733002  3.0444E-05  1.06209609E-05
  81.1005402  2.98735886E-05  1.02926961E-05
  81.9363022  2.93129433E-05  9.97347342E-06
  82.7806702  2.87598305E-05  9.66265634E-06
  83.6337433  2.82151886E-05  9.36152446E-06
  84.4956131  2.76794217E-05  9.06977402E-06
  85.3663559  2.71518347E-05  8.78710307E-06
  86.2460785  2.66335792E-05  8.51323512E-06
  87.1348648  2.61243731E-05  8.24790732E-06
  88.032814  2.56236708E-05  7.99055761E-06
  88.9400024  2.5132018E-05  7.74107775E-06
  89.8565521  2.46489799E-05  7.49912761E-06
  90.782547  2.41743528E-05  7.26435655E-06
  91.7180862  2.37082677E-05  7.03664546E-06
  92.6632614  2.32498951E-05  6.81537495E-06
  93.6181793  2.27994642E-05  6.6010698E-06
  94.5829391  2.23571551E-05  6.39351038E-06
  95.5576401  2.19224803E-05  6.19251614E-06
  96.5423813  2.14958782E-05  5.99782061E-06
  97.5372696  2.10771996E-05  5.80922597E-06
  98.5424118  2.06672248E-05  5.62658806E-06
  99.5579224  2.02651972E-05  5.44879049E-06
  100.583885  1.98708894E-05  5.27509383E-06
  101.620422  1.94820022E-05  5.10521159E-06
  102.667641  1.90996743E-05  4.94051801E-06
  103.725655  1.87232727E-05  4.7815538E-06
  104.794579  1.83536013E-05  4.62766502E-06
  105.874504  1.79907838E-05  4.47871253E-06
  106.965576  1.76341655E-05  4.33456216E-06
  108.067871  1.72841246E-05  4.19503112E-06
  109.181541  1.69406139E-05  4.05996207E-06
  110.306686  1.66031514E-05  3.92926495E-06
  111.44342  1.6272108E-05  3.80278311E-06
  112.591866  1.59472656E-05  3.68038218E-06
  113.752151  1.56283622E-05  3.56190526E-06
  114.9244  1.53155706E-05  3.44725777E-06
  116.108719  1.50086253E-05  3.33634648E-06
  117.305252  1.47074943E-05  3.22898677E-06
  118.514107  1.44122132E-05  3.125072E-06
  119.73542  1.41224909E-05  3.0244787E-06
  120.96933  1.38383457E-05  2.92711889E-06
  122.21595  1.35597384E-05  2.83288932E-06
  123.475403  1.32863952E-05  2.74167496E-06
  124.747856  1.30184308E-05  2.65341828E-06
  126.033409  1.27557269E-05  2.56802832E-06
  127.332199  1.24983035E-05  2.48537935E-06
  128.644394  1.22460924E-05  2.40531995E-06
  129.970108  1.19990282E-05  2.32770367E-06
  131.309479  1.17566369E-05  2.25161261E-06
  132.662659  1.15188541E-05  2.17770298E-06
  134.02977  1.12851203E-05  2.10618668E-06
  135.41098  1.10557676E-05  2.03702666E-06
  136.806427  1.08308413E-05  1.97014197E-06
  138.216248  1.06100861E-05  1.90546484E-06
  139.640594  1.03936609E-05  1.84291707E-06
  141.079636  1.01814821E-05  1.78242783E-06
  142.533493  9.97335246E-06  1.72392743E-06
  144.002319  9.7693628E-06  1.6673373E-06
  145.486313  9.56937765E-06  1.61258788E-06
  146.985565  9.37329787E-06  1.55965211E-06
  148.50029  9.18114984E-06  1.50845892E-06
  150.030624  8.99282895E-06  1.45895126E-06
  151.576721  8.80828611E-06  1.41105329E-06
  153.138763  8.62748584E-06  1.36472204E-06
  154.716888  8.45036357E-06  1.31992419E-06
  156.311295  8.27692202E-06  1.27659303E-06
  157.922104  8.10708116E-06  1.23468192E-06
  159.54953  7.9414358E-06  1.1938447E-06
  161.193726  7.7792447E-06  1.15378657E-06
  162.854858  7.62044556E-06  1.11430643E-06
  164.533127  7.46382102E-06  1.07492679E-06
  166.228683  7.30990268E-06  1.03672517E-06
  167.941711  7.15834631E-06  9.998721E-07
  169.672379  7.00942883E-06  9.64334276E-07
  171.420898  6.86333078E-06  9.30060082E-07
  173.187439  6.71983071E-06  8.97007453E-07
  174.972168  6.57905821E-06  8.65125855E-07
  176.775299  6.44103557E-06  8.34374532E-07
  178.597  6.30551176E-06  8.04721367E-07
  180.4375  6.17266551E-06  7.76121567E-07
  182.296936  6.04242496E-06  7.48538469E-07
  184.175552  5.91462413E-06  7.21932452E-07
  186.073517  5.78938125E-06  6.96273275E-07
  187.991058  5.66657081E-06  6.71528767E-07
  189.928345  5.54613325E-06  6.47659419E-07
  191.885605  5.42812404E-06  6.2463846E-07
  193.863037  5.31239584E-06  6.0244048E-07
  195.860825  5.19895275E-06  5.81029099E-07
  197.879211  5.08780613E-06  5.60377316E-07
  199.918411  4.97878818E-06  5.40460007E-07
  201.978622  4.87196394E-06  5.21251081E-07
  204.060059  4.76729656E-06  5.02725186E-07
  206.162933  4.66463598E-06  4.84858958E-07
  208.287506  4.56406997E-06  4.67626307E-07
  210.43396  4.46551303E-06  4.51003956E-07
  212.602524  4.36888467E-06  4.34975647E-07
  214.793442  4.2742372E-06  4.19516653E-07
  217.006943  4.18145964E-06  4.04605373E-07
  219.243256  4.09060021E-06  3.90209522E-07
  221.502594  4.0016339E-06  3.76285669E-07
  223.785233  3.91434878E-06  3.62612695E-07
  226.0914  3.82870167E-06  3.49435993E-07
  228.421326  3.74471392E-06  3.36737685E-07
  230.775269  3.66224367E-06  3.24501173E-07
  233.153442  3.58144075E-06  3.12709403E-07
  235.556152  3.50222786E-06  3.01346034E-07
  237.983612  3.4244822E-06  2.90394951E-07
  240.436081  3.3483102E-06  2.79842226E-07
  242.913834  3.27359385E-06  2.69673905E-07
  245.417114  3.20029244E-06  2.59874525E-07
  247.946198  3.12847578E-06  2.50430872E-07
  250.501358  3.05797948E-06  2.41329531E-07
  253.082825  2.98885061E-06  2.32559927E-07
  255.690903  2.92111963E-06  2.24109556E-07
  258.325867  2.85455849E-06  2.159655E-07
  260.987946  2.7893243E-06  2.08117484E-07
  263.677521  2.72536863E-06  2.00554496E-07
  266.394775  2.66251459E-06  1.93266601E-07
  269.140045  2.6009136E-06  1.86243483E-07
  271.913574  2.54044926E-06  1.79475563E-07
  274.715698  2.48104016E-06  1.7295342E-07
  277.546722  2.42280657E-06  1.66668286E-07
  280.406921  2.36556298E-06  1.60611947E-07
  283.296539  2.30933983E-06  1.54775691E-07
  286.216003  2.25421741E-06  1.49151418E-07
  289.165497  2.1999258E-06  1.43731441E-07
  292.145447  2.14663146E-06  1.38508327E-07
  295.156067  2.09433688E-06  1.33475012E-07
  298.197723  2.04275261E-06  1.28624706E-07
  301.270721  1.99214242E-06  1.23950571E-07
  304.375397  1.94238328E-06  1.19446113E-07
  307.512054  1.8933797E-06  1.15105934E-07
  310.68103  1.84530472E-06  1.10817815E-07
  313.88266  1.79792733E-06  1.0638837E-07
  317.11731  1.75094192E-06  1.01955735E-07
  320.385284  1.70462965E-06  9.7629318E-08
  323.68692  1.65842198E-06  9.34861646E-08
  327.022583  1.61272976E-06  8.95191192E-08
  330.392609  1.56769784E-06  8.57206786E-08
  333.797394  1.52254427E-06  8.2083055E-08
  337.237244  1.47793639E-06  7.85997614E-08
  340.712555  1.43368322E-06  7.52642748E-08
  344.223694  1.38916732E-06  7.20704492E-08
  347.770996  1.34505024E-06  6.90122519E-08
  351.354858  1.30078217E-06  6.60837429E-08
  354.975647  1.25601957E-06  6.32795079E-08
  358.633759  1.21142421E-06  6.05946084E-08
  362.329559  1.16572846E-06  5.80253463E-08
  366.063446  1.11917245E-06  5.55774662E-08
  369.835815  1.07241033E-06  5.32406901E-08
  373.647095  1.02249078E-06  5.10023774E-08
  377.497589  9.70983706E-07  4.88581975E-08
  381.387787  9.17680893E-07  4.68041677E-08
  385.318085  8.57145665E-07  4.48362698E-08
  389.288879  7.9205347E-07  4.29511751E-08
  393.300598  7.18477281E-07  4.11455048E-08
  397.353638  6.2100537E-07  3.94157098E-08
  401.448456  4.93606819E-07  3.77586069E-08
  405.58548  2.76384753E-07  3.61711088E-08
  409.765137 -7.27089116E-07  3.46500819E-08
  413.987885  3.13390501E-07  8.95112407E-07
  418.25412  4.95922166E-07  8.65201059E-07
  422.564301  6.2327581E-07  8.36289473E-07
  426.918915  7.01846773E-07  8.08342634E-07
  431.31842  7.49867525E-07  7.81329049E-07
  435.763275  7.88835905E-07  7.55218878E-07
  440.253937  8.17417686E-07  7.2998148E-07
  444.790833  8.37643768E-07  7.05588548E-07
  449.374481  8.53829192E-07  6.82010466E-07
  454.005402  8.64965159E-07  6.59218813E-07
  458.684052  8.72592068E-07  6.37190055E-07
  463.410889  8.78007029E-07  6.15897591E-07
  468.186462  8.80350342E-07  5.95315214E-07
  473.01123  8.80985567E-07  5.7542195E-07
  477.885712  8.80282244E-07  5.56194379E-07
  482.810425  8.77516925E-07  5.37606923E-07
  487.785919  8.73887075E-07  5.19641162E-07
  492.812622  8.69260816E-07  5.02276919E-07
  497.891235  8.63476544E-07  4.85491455E-07
  503.022095  8.57133386E-07  4.69267377E-07
  508.205841  8.50041317E-07  4.53586694E-07
  513.442993  8.42304928E-07  4.38429623E-07
  518.734192  8.34216166E-07  4.23778857E-07
  524.079834  8.25571362E-07  4.09617257E-07
  529.480652  8.16598117E-07  3.95928595E-07
  534.937073  8.07417337E-07  3.82697749E-07
  540.449707  7.97843029E-07  3.69908918E-07
  546.019165  7.88154239E-07  3.5754752E-07
  551.645996  7.78348294E-07  3.45599403E-07
  557.330872  7.68439463E-07  3.34050725E-07
  563.07428  7.585449E-07  3.22727004E-07
  568.876892  7.48641583E-07  3.11496677E-07
  574.739258  7.38380493E-07  3.00420709E-07
  580.662109  7.27989118E-07  2.89675484E-07
  586.645996  7.17305227E-07  2.79314065E-07
  592.691528  7.06539311E-07  2.69323351E-07
  598.799316  6.95777658E-07  2.59690069E-07
  604.970093  6.8490499E-07  2.50400774E-07
  611.204468  6.74059436E-07  2.41444383E-07
  617.503052  6.63258504E-07  2.32808929E-07
  623.866577  6.52416929E-07  2.24481425E-07
  630.295654  6.41660563E-07  2.16451951E-07
  636.791016  6.30961608E-07  2.08709935E-07
  643.353333  6.20297271E-07  2.01244376E-07
  649.983215  6.09740312E-07  1.94045995E-07
  656.681458  5.99250995E-07  1.8710557E-07
  663.448669  5.88846945E-07  1.80413124E-07
  670.285645  5.78565164E-07  1.73959933E-07
  677.193115  5.68359667E-07  1.67737383E-07
  684.171753  5.58272234E-07  1.61737745E-07
  691.222351  5.48316677E-07  1.5595316E-07
  698.34552  5.38445988E-07  1.50374404E-07
  705.542175  5.28714395E-07  1.44995568E-07
  712.812927  5.19111722E-07  1.39809572E-07
  720.15863  5.09619895E-07  1.34808673E-07
  727.580078  5.00271767E-07  1.29986645E-07
  735.077942  4.9105148E-07  1.25337209E-07
  742.653076  4.8196074E-07  1.20854338E-07
  750.306274  4.73019327E-07  1.1653183E-07
  758.03833  4.64222609E-07  1.12363665E-07
  765.850098  4.55573513E-07  1.08320236E-07
  773.742371  4.47072296E-07  1.04404343E-07
  781.716003  4.38671719E-07  1.00570333E-07
  789.77179  4.30388042E-07  9.68628697E-08
  797.910522  4.22218363E-07  9.32775208E-08
  806.133179  4.14135968E-07  8.98244537E-08
  814.440613  4.06183432E-07  8.64992913E-08
  822.833557  3.9835021E-07  8.32974507E-08
  831.313049  3.90628657E-07  8.02141571E-08
  839.879944  3.8303682E-07  7.72476767E-08
  848.535095  3.75560376E-07  7.43997859E-08
  857.279419  3.68210067E-07  7.16648998E-08
  866.113953  3.60991692E-07  6.9035309E-08
  875.039429  3.5389823E-07  6.65110846E-08
  884.056885  3.46936616E-07  6.40789395E-08
  893.167297  3.40105345E-07  6.17355269E-08
  902.371643  3.33392705E-07  5.94782747E-08
  911.670776  3.2680893E-07  5.73036978E-08
  921.065796  3.20350722E-07  5.52088117E-08
  930.557556  3.1400981E-07  5.31735544E-08
  940.147217  3.07785058E-07  5.12088967E-08
  949.835571  3.01664528E-07  4.931373E-08
  959.623901  2.9565291E-07  4.74859796E-08
  969.513  2.89753388E-07  4.57248994E-08
  979.504028  2.83956695E-07  4.40291856E-08
  989.598083  2.78268118E-07  4.2396632E-08
  999.796143  2.72687771E-07  4.08248226E-08
  1010.09924  2.67207611E-07  3.9311491E-08
  1020.50854  2.61834913E-07  3.78571734E-08
  1031.02515  2.56567006E-07  3.64601718E-08
  1041.65015  2.51405822E-07  3.51057707E-08
  1052.38464  2.46344229E-07  3.37970611E-08
  1063.22961  2.41375432E-07  3.25300427E-08
  1074.18652  2.36495367E-07  3.13104316E-08
  1085.25623  2.31708739E-07  3.01365475E-08
  1096.44006  2.27012237E-07  2.90065678E-08
  1107.73914  2.22406257E-07  2.79187713E-08
  1119.15454  2.1789063E-07  2.68716658E-08
  1130.68787  2.13460623E-07  2.58637645E-08
  1142.33972  2.09118028E-07  2.48938274E-08
  1154.11182  2.0486091E-07  2.39604017E-08
  1166.00525  2.00686443E-07  2.30619932E-08
  1178.02112  1.96595494E-07  2.2197252E-08
  1190.16089  1.92585787E-07  2.13648832E-08
  1202.4259  1.88655619E-07  2.056378E-08
  1214.81714  1.84805089E-07  1.9792731E-08
  1227.33618  1.81033016E-07  1.90505691E-08
  1239.98413  1.77337739E-07  1.83331021E-08
  1252.76245  1.73717453E-07  1.76406569E-08
  1265.67249  1.70168278E-07  1.69702332E-08
  1278.71558  1.66688608E-07  1.63222111E-08
  1291.89294  1.6327752E-07  1.56963598E-08
  1305.20618  1.59929485E-07  1.50943151E-08
  1318.65674  1.56648355E-07  1.45153729E-08
  1332.24573  1.53432453E-07  1.39587089E-08
  1345.97485  1.50280314E-07  1.34234126E-08
  1359.84546  1.47191855E-07  1.29085453E-08
  1373.85901  1.44165128E-07  1.2413123E-08
  1388.01697  1.41198981E-07  1.19368737E-08
  1402.3208  1.38293004E-07  1.14790115E-08
  1416.77209  1.35445688E-07  1.10389973E-08
  1431.37219  1.32656552E-07  1.0615631E-08
  1446.1228  1.29924473E-07  1.02083417E-08
  1461.02539  1.2724756E-07  9.81655734E-09
  1476.08167  1.24625714E-07  9.43969081E-09
  1491.29297  1.22057841E-07  9.07715769E-09
  1506.66113  1.19542293E-07  8.72683792E-09
  1522.18762  1.17077718E-07  8.38978487E-09
  1537.87415  1.14662214E-07  8.06566369E-09
  1553.72217  1.12296057E-07  7.75424169E-09
  1569.73376  1.09978409E-07  7.45487583E-09
  1585.91028  1.0770821E-07  7.16698167E-09
  1602.25342  1.05484588E-07  6.89019775E-09
  1618.76489  1.03306675E-07  6.62409461E-09
  1635.44678  1.01173342E-07  6.36822106E-09
  1652.30042  9.90840334E-08  6.12225248E-09
  1669.32764  9.70378267E-08  5.88580518E-09
  1686.53052  9.50337622E-08  5.65848612E-09
  1703.91064  9.30712645E-08  5.43996048E-09
  1721.46985  9.11495874E-08  5.22988675E-09
  1739.20996  8.92678855E-08  5.02676567E-09
  1757.13293  8.74248656E-08  4.83114437E-09
  1775.2406  8.56192059E-08  4.64279415E-09
  1793.53491  8.38505301E-08  4.46157244E-09
  1812.0177  8.21181985E-08  4.28732339E-09
  1830.69104  8.04213229E-08  4.11988399E-09
  1849.55664  7.87594345E-08  3.95898958E-09
  1868.6167  7.71318227E-08  3.80438347E-09
  1887.87329  7.55378196E-08  3.65580477E-09
  1907.32825  7.39767643E-08  3.51302876E-09
  1926.98364  7.24479534E-08  3.37582606E-09
  1946.84167  7.09508328E-08  3.24399441E-09
  1966.90454  6.94846349E-08  3.11731396E-09
  1987.17383  6.8048692E-08  2.99558645E-09
  2007.6521  6.66427056E-08  2.87910296E-09
  2028.34143  6.52660077E-08  2.76715717E-09
  2049.24414  6.3918435E-08  2.65859956E-09
  2070.36182  6.25985237E-08  2.55424215E-09
  2091.69751  6.13056983E-08  2.45392906E-09
  2113.25293  6.00396248E-08  2.35747555E-09
  2135.03027  5.87997278E-08  2.26476837E-09
  2157.03247  5.75854315E-08  2.17564877E-09
  2179.26099  5.63963631E-08  2.08999906E-09
  2201.71899  5.52318653E-08  2.00768313E-09
  2224.4082  5.40914762E-08  1.92855376E-09
  2247.3313  5.29747375E-08  1.8525137E-09
  2270.49072  5.18811163E-08  1.77944581E-09
  2293.88867  5.08102111E-08  1.70919223E-09
  2317.52734  4.97615034E-08  1.6416839E-09
  2341.41016  4.87344671E-08  1.5768199E-09
  2365.53882  4.77287543E-08  1.51445201E-09
  2389.9165  4.67438603E-08  1.45452606E-09
  2414.54492  4.57793803E-08  1.39694856E-09
  2439.42749  4.4834934E-08  1.34161493E-09
  2464.56641  4.39100383E-08  1.28845812E-09
  2489.96436  4.30043094E-08  1.2373863E-09
  2515.62402  4.21174171E-08  1.18830346E-09
  2541.5481  4.1248871E-08  1.14114762E-09
  2567.73926  4.03983087E-08  1.09582687E-09
  2594.20044  3.95654283E-08  1.05229825E-09
  2620.93433  3.87497927E-08  1.01048725E-09
  2647.9436  3.79510574E-08  9.70274305E-10
  2675.23145  3.71688635E-08  9.31661859E-10
  2702.80005  3.64028772E-08  8.94589125E-10
  2730.65332  3.5652814E-08  8.58955573E-10
  2758.79346  3.49182621E-08  8.24726121E-10
  2787.22314  3.41989193E-08  7.91840093E-10
  2815.94629  3.34945334E-08  7.60260521E-10
  2844.96533  3.28047172E-08  7.29928229E-10
  2874.2832  3.212919E-08  7.00779268E-10
  2903.90356  3.1467664E-08  6.7276712E-10
